##NAME:²É¼¯Í¼Æ×
##X_AXIS:Raman Shift(cm-1)
##Y_AXIS:ORIGINAL_REDUCE_DARK
##DATE:2025-03-15
##TIME:10:54:01
##LASERLENGTH:785
##LASERLEVEL:120
##INTGRTIME:5000
##>>>>>Begin Processed Spectral Data<<<<<
158,160
159,175.814
160,193.4
161,219.787
162,251.461
163,292.425
164,350.528
165,410.037
166,485.791
167,561.544
168,656.59
169,756.184
170,867.001
171,987.378
172,1108.62
173,1232.15
174,1355.68
175,1478.85
176,1602.02
177,1696.79
178,1781.6
179,1859.06
180,1928.45
181,1991.32
182,2030.24
183,2069.15
184,2105.14
185,2140.98
186,2169.17
187,2193.97
188,2217.61
189,2239.76
190,2260.19
191,2272.6
192,2285.02
193,2321.52
194,2360.11
195,2389.85
196,2415.14
197,2437.88
198,2456.97
199,2477.42
200,2504.97
201,2532.51
202,2555.22
203,2577.45
204,2597.34
205,2616.02
206,2632.32
207,2645.23
208,2659.53
209,2680.91
210,2702.28
211,2708.51
212,2713.41
213,2720.72
214,2729.19
215,2735.35
216,2738.47
217,2742.11
218,2747.91
219,2753.71
220,2758.25
221,2762.71
222,2771.31
223,2781.59
224,2784.46
225,2779.09
226,2776.06
227,2780.54
228,2785.02
229,2793.08
230,2801.14
231,2805.75
232,2809.34
233,2810.52
234,2809.62
235,2807.22
236,2801.39
237,2796.3
238,2800.34
239,2804.38
240,2804.24
241,2803.34
242,2810.23
243,2821.91
244,2828.65
245,2827.75
246,2830.1
247,2848.54
248,2866.98
249,2867.57
250,2867.12
251,2871.23
252,2877.08
253,2881.13
254,2883.38
255,2889.96
256,2907.54
257,2923.08
258,2908.65
259,2894.21
260,2914.16
261,2940.34
262,2951.42
263,2953.68
264,2954.44
265,2953.08
266,2952.92
267,2957.44
268,2961.96
269,2963.35
270,2964.7
271,2974.89
272,2987.57
273,2989.38
274,2983.04
275,2979
276,2979
277,2976.87
278,2963.27
279,2949.67
280,2956.77
281,2964.93
282,2967
283,2967
284,2955.15
285,2933.34
286,2919
287,2919
288,2921.19
289,2936.65
290,2952.11
291,2932.85
292,2911.46
293,2900.92
294,2894.09
295,2887.51
296,2881.13
297,2881.98
298,2896.11
299,2905.97
300,2893.21
301,2880.44
302,2869.42
303,2858.47
304,2852.46
305,2847.9
306,2838.53
307,2825.74
308,2809.51
309,2788.03
310,2769.01
311,2759.4
312,2749.57
313,2728.98
314,2708.39
315,2691.99
316,2676.42
317,2651.3
318,2621.06
319,2600.27
320,2590.19
321,2577.59
322,2558.79
323,2540.77
324,2529.3
325,2517.82
326,2521.69
327,2526.74
328,2514.55
329,2496.63
330,2482.14
331,2470.18
332,2461.35
333,2457.21
334,2454.21
335,2455.13
336,2455.06
337,2437.09
338,2419.13
339,2412.94
340,2408.33
341,2408.31
342,2410.16
343,2406.75
344,2398.91
345,2386.74
346,2367.35
347,2354.98
348,2369.3
349,2382.64
350,2374.32
351,2366.01
352,2362.97
353,2360.66
354,2348.07
355,2331.41
356,2331.96
357,2346.31
358,2352.62
359,2346.6
360,2341.67
361,2340.28
362,2338.09
363,2326.5
364,2314.91
365,2311.43
366,2308.65
367,2311.2
368,2315.38
369,2322.41
370,2331.23
371,2333.22
372,2327.18
373,2320.28
374,2311.44
375,2307.01
376,2326.09
377,2344.97
378,2341.24
379,2337.52
380,2340.21
381,2343.94
382,2333.68
383,2317.83
384,2314.19
385,2319.78
386,2319.23
387,2310.36
388,2302.55
389,2297.41
390,2292.93
391,2292.47
392,2292
393,2297.61
394,2303.22
395,2299.17
396,2293.55
397,2295.72
398,2300.87
399,2301.35
400,2298.54
401,2296.37
402,2294.96
403,2289.55
404,2275.48
405,2267.61
406,2287.32
407,2306.85
408,2323.27
409,2339.7
410,2341.87
411,2342.8
412,2334.82
413,2324.48
414,2315.7
415,2307.7
416,2299.21
417,2290.27
418,2279.01
419,2264.42
420,2254.13
421,2254.61
422,2255.92
423,2261.58
424,2267.15
425,2270.93
426,2274.7
427,2282.81
428,2291.3
429,2289.98
430,2286.2
431,2280.81
432,2274.67
433,2276.54
434,2284.57
435,2288.58
436,2287.63
437,2283.53
438,2273.12
439,2269.59
440,2290.41
441,2307.83
442,2296.93
443,2286.04
444,2298.28
445,2310.6
446,2311.58
447,2311.11
448,2318.75
449,2328.71
450,2331.05
451,2329.62
452,2327.13
453,2323.8
454,2329.41
455,2345.57
456,2352.8
457,2343.76
458,2334.72
459,2325.68
460,2319.22
461,2327.31
462,2334.98
463,2334.5
464,2334.02
465,2321.76
466,2308.89
467,2311.88
468,2317.6
469,2308.18
470,2293.86
471,2291.84
472,2296.14
473,2306.66
474,2321.94
475,2328.42
476,2325.07
477,2323.36
478,2324.32
479,2321.94
480,2311.42
481,2302.81
482,2301.85
483,2299.71
484,2288.21
485,2276.81
486,2269.14
487,2261.47
488,2264.6
489,2268.44
490,2265.72
491,2261.88
492,2252.86
493,2242.3
494,2231.73
495,2221.16
496,2227.79
497,2245.58
498,2254.25
499,2254.73
500,2257.8
501,2264.06
502,2266.57
503,2262.72
504,2265.65
505,2284.93
506,2298.84
507,2293.54
508,2287.06
509,2273.55
510,2261.48
511,2268.24
512,2274.99
513,2279.82
514,2284.65
515,2274.23
516,2262.64
517,2263.49
518,2266.39
519,2258.97
520,2248.81
521,2252.3
522,2261.02
523,2265.91
524,2268.82
525,2268.28
526,2265.37
527,2261.95
528,2258.07
529,2258.49
530,2263.83
531,2263.46
532,2254.72
533,2250.84
534,2256.19
535,2253.46
536,2230.62
537,2215.78
538,2227.94
539,2235.82
540,2223.17
541,2211.15
542,2203.85
543,2195.91
544,2178.37
545,2161.01
546,2162.48
547,2163.94
548,2156.06
549,2147.77
550,2147.44
551,2147.93
552,2145.07
553,2141.65
554,2132.71
555,2122.45
556,2130.42
557,2144.1
558,2137.86
559,2123.67
560,2107.19
561,2089.58
562,2090.36
563,2102.11
564,2109
565,2112.43
566,2109.21
567,2100.39
568,2097.72
569,2101.16
570,2102.77
571,2102.28
572,2098.87
573,2091.51
574,2088.14
575,2091.09
576,2089.54
577,2079.71
578,2076.91
579,2089.2
580,2097.02
581,2093.58
582,2092.12
583,2096.55
584,2094.99
585,2072.33
586,2057.49
587,2075.73
588,2091.08
589,2091.57
590,2093.2
591,2102.08
592,2109.3
593,2102.89
594,2096.47
595,2090.04
596,2083.85
597,2081.38
598,2079.53
599,2094.37
600,2108.68
601,2085.42
602,2062.16
603,2054.62
604,2047.2
605,2047.48
606,2047.98
607,2043.74
608,2039.28
609,2038.07
610,2037.08
611,2028.77
612,2019.84
613,2023.95
614,2029.41
615,2026.01
616,2021.54
617,2017.94
618,2014.46
619,2034.72
620,2058.59
621,2046.64
622,2028.72
623,2034.02
624,2043.48
625,2044.58
626,2044.08
627,2055.21
628,2068.67
629,2080.48
630,2091.95
631,2089.08
632,2083.09
633,2092.62
634,2105.6
635,2112.89
636,2118.88
637,2120.41
638,2120.91
639,2119.78
640,2118.28
641,2111.89
642,2104.38
643,2116.49
644,2133.01
645,2124.1
646,2109.57
647,2107.83
648,2108.83
649,2104.43
650,2098.91
651,2104.29
652,2111.82
653,2098.61
654,2081.54
655,2077.72
656,2076.21
657,2079.46
658,2083.49
659,2083.56
660,2083.06
661,2081.22
662,2079.21
663,2057.77
664,2034.1
665,2032.46
666,2032.96
667,2040.48
668,2048.54
669,2037.1
670,2024.49
671,2024
672,2024
673,2016.58
674,2009
675,2015.06
676,2021.01
677,2021.52
678,2022.04
679,2023.05
680,2024.1
681,2025.62
682,2027.05
683,2027.55
684,2027.47
685,2022.91
686,2019.36
687,2021.89
688,2025.98
689,2037.64
690,2043.38
691,2025.11
692,2014.59
693,2030.33
694,2039.9
695,2031.77
696,2031.91
697,2052.25
698,2059.24
699,2038.39
700,2031.38
701,2049.2
702,2058.4
703,2054.32
704,2051.12
705,2049.09
706,2048.72
707,2050.24
708,2048.93
709,2044.85
710,2045.79
711,2050.89
712,2059.29
713,2070.02
714,2073.04
715,2071.5
716,2072.37
717,2074.42
718,2077.56
719,2081.14
720,2071.48
721,2057.66
722,2059.55
723,2065.18
724,2066
725,2066
726,2054.42
727,2041.6
728,2044.42
729,2047.96
730,2037.7
731,2028.63
732,2039.93
733,2049.61
734,2046.01
735,2041.58
736,2032.84
737,2027.34
738,2033.52
739,2036.87
740,2032.76
741,2031.36
742,2035.48
743,2036.8
744,2033.7
745,2035.01
746,2041.71
747,2050.78
748,2062.13
749,2067
750,2067
751,2073.54
752,2083.87
753,2092.04
754,2099.28
755,2098.64
756,2095.53
757,2086
758,2075.14
759,2083.73
760,2094.6
761,2095
762,2094.93
763,2092.86
764,2091.53
765,2096.72
766,2100.73
767,2099.17
768,2099.92
769,2107.7
770,2114.33
771,2118.48
772,2116.08
773,2103.61
774,2099.44
775,2104.64
776,2100.74
777,2089.3
778,2080.13
779,2072.32
780,2073.3
781,2077.98
782,2083.08
783,2088.29
784,2077.29
785,2063.73
786,2057.57
787,2052.08
788,2054.69
789,2056.53
790,2052.35
791,2052.32
792,2069.05
793,2077.57
794,2065.55
795,2056.25
796,2051.54
797,2052.86
798,2061.24
799,2067.31
800,2071.5
801,2068.3
802,2060.96
803,2064.38
804,2071.72
805,2066.94
806,2059.59
807,2069.13
808,2079.86
809,2069.88
810,2061.87
811,2069.75
812,2072.51
813,2055.69
814,2047.85
815,2060.48
816,2062.25
817,2048.04
818,2046.84
819,2058.43
820,2057.26
821,2047.77
822,2047.61
823,2051.3
824,2044.72
825,2035.76
826,2040.8
827,2046.83
828,2038.91
829,2031.93
830,2031.4
831,2029.01
832,2020.55
833,2018.82
834,2029.93
835,2028.56
836,2012.15
837,2004.7
838,2004.17
839,2004
840,2004
841,1998.15
842,1990.72
843,1985.21
844,1980.23
845,1993.5
846,2005.21
847,2006.81
848,2002.95
849,1982.75
850,1972.55
851,1979.46
852,1988.96
853,2001.2
854,2007.62
855,2010.28
856,2002.85
857,1991.67
858,2001.79
859,2015.64
860,2018.08
861,2019
862,2008.87
863,2001.6
864,2004.27
865,2012.92
866,2032.68
867,2045.81
868,2051.68
869,2056.92
870,2061.73
871,2063.39
872,2063.93
873,2065.39
874,2067
875,2071.27
876,2075.28
877,2077.42
878,2080.98
879,2088.49
880,2094.07
881,2096.75
882,2096.57
883,2093.88
884,2102.73
885,2117.23
886,2112.61
887,2103.48
888,2097.4
889,2093.22
890,2107.21
891,2114.44
892,2098.83
893,2091.99
894,2100.07
895,2101.79
896,2097.48
897,2091.75
898,2085.28
899,2087.89
900,2092.75
901,2081.23
902,2069.28
903,2061.72
904,2056.66
905,2059.36
906,2059.73
907,2056.48
908,2051.19
909,2044.15
910,2044.63
911,2048.42
912,2044.88
913,2040
914,2024.3
915,2009.92
916,2002.87
917,2002.35
918,2016.45
919,2027.78
920,2035.92
921,2037.99
922,2036.36
923,2036.42
924,2036.97
925,2031.89
926,2025.8
927,2013.84
928,2010.4
929,2031.08
930,2040.92
931,2036.02
932,2038.8
933,2046.97
934,2039.58
935,2027.04
936,2027.5
937,2029.23
938,2031.96
939,2036.87
940,2048.34
941,2052.02
942,2044.92
943,2048.43
944,2059.36
945,2068.23
946,2076.43
947,2070.38
948,2064.84
949,2073.06
950,2077.94
951,2074.11
952,2071.75
953,2071.2
954,2071
955,2071
956,2067.48
957,2063.09
958,2053.31
959,2042.64
960,2027.81
961,2023.58
962,2040.07
963,2041.15
964,2027.95
965,2023.61
966,2023.06
967,2020.57
968,2017.67
969,2012.71
970,2007.06
971,1999.35
972,1997.41
973,2002.92
974,1992.62
975,1972.76
976,1965.87
977,1962
978,1963.1
979,1966.09
980,1977.14
981,1982.95
982,1980.19
983,1977.11
984,1973.79
985,1984.83
986,2000.33
987,1997.82
988,1991.98
989,1972.03
990,1964.96
991,1982.15
992,1997.54
993,2011.41
994,2018.29
995,2022.73
996,2031.87
997,2040.69
998,2045.7
999,2046.74
1000,2040.06
1001,2046.02
1002,2062.71
1003,2078.17
1004,2093.2
1005,2089.26
1006,2084.92
1007,2084.36
1008,2086.38
1009,2093.08
1010,2095.69
1011,2095.13
1012,2088.55
1013,2080.18
1014,2086.01
1015,2089.21
1016,2079.72
1017,2071.33
1018,2064.62
1019,2063.36
1020,2065.6
1021,2066
1022,2066.1
1023,2068.9
1024,2072.68
1025,2079.4
1026,2075.71
1027,2060.01
1028,2055
1029,2055
1030,2046.43
1031,2038.46
1032,2042.39
1033,2042.36
1034,2034.5
1035,2026.94
1036,2019.63
1037,2018.87
1038,2020
1039,2015.5
1040,2010.88
1041,2005.81
1042,2004
1043,2006.26
1044,2016.83
1045,2031.49
1046,2020.86
1047,2009
1048,2009
1049,2005.62
1050,1996.03
1051,2001.19
1052,2017
1053,2028.25
1054,2037.81
1055,2033.29
1056,2033.09
1057,2044.41
1058,2056.3
1059,2068.76
1060,2078.29
1061,2086.78
1062,2084.24
1063,2080.57
1064,2073.76
1065,2074.06
1066,2083.13
1067,2089.11
1068,2093.65
1069,2088.76
1070,2083.91
1071,2083.34
1072,2083.46
1073,2084.6
1074,2090.87
1075,2099.97
1076,2098.48
1077,2094.07
1078,2079.26
1079,2071.28
1080,2074.7
1081,2076.35
1082,2076.92
1083,2063.16
1084,2049.97
1085,2058.54
1086,2064.41
1087,2065.56
1088,2066
1089,2066
1090,2054.18
1091,2041.29
1092,2035
1093,2032.46
1094,2036.47
1095,2031.28
1096,2020.4
1097,2012.01
1098,2005.07
1099,2005.65
1100,2006
1101,2006
1102,1999.77
1103,1990.01
1104,1986.43
1105,1983.47
1106,1980.02
1107,1979.91
1108,1984.51
1109,1975.12
1110,1959.02
1111,1958.54
1112,1958.77
1113,1957.62
1114,1955.67
1115,1952.79
1116,1959.55
1117,1969.92
1118,1964.27
1119,1961.49
1120,1967.27
1121,1973.04
1122,1978.81
1123,1975.87
1124,1971.55
1125,1980.22
1126,1986.77
1127,1989.09
1128,1988.95
1129,1987.21
1130,1994.11
1131,2003.34
1132,2018.98
1133,2023.83
1134,2013.97
1135,2023.15
1136,2040.55
1137,2039.87
1138,2045.69
1139,2072.4
1140,2091.14
1141,2102.75
1142,2109.22
1143,2114.2
1144,2116.53
1145,2120.13
1146,2125.95
1147,2121.59
1148,2111.69
1149,2099.62
1150,2089.25
1151,2085.76
1152,2082.84
1153,2080.51
1154,2079.54
1155,2079.2
1156,2082.12
1157,2083.58
1158,2082.42
1159,2074.85
1160,2063.75
1161,2074.45
1162,2081.01
1163,2067.55
1164,2063.4
1165,2068.09
1166,2072.77
1167,2078.25
1168,2091.15
1169,2096.02
1170,2088.4
1171,2077.56
1172,2065.24
1173,2067.3
1174,2069.49
1175,2071.25
1176,2066.27
1177,2056.28
1178,2051.41
1179,2050.12
1180,2062.47
1181,2068.45
1182,2067.27
1183,2060.18
1184,2052.26
1185,2055.8
1186,2060.44
1187,2066.93
1188,2061.78
1189,2051.16
1190,2067.28
1191,2076.08
1192,2066.05
1193,2063.41
1194,2065.77
1195,2062.79
1196,2059.12
1197,2054.98
1198,2059.79
1199,2072.81
1200,2067.61
1201,2060.51
1202,2064.06
1203,2066.54
1204,2067.72
1205,2068
1206,2068.24
1207,2071.21
1208,2078.18
1209,2091.24
1210,2089.93
1211,2083.2
1212,2090.33
1213,2099.73
1214,2113.41
1215,2124.32
1216,2133.84
1217,2139.27
1218,2143.9
1219,2146.88
1220,2151.35
1221,2156.71
1222,2170.55
1223,2177.94
1224,2166.61
1225,2164.13
1226,2167.71
1227,2181.71
1228,2193.15
1229,2193.74
1230,2200.14
1231,2210.9
1232,2220.06
1233,2229.57
1234,2240.95
1235,2253.65
1236,2267.43
1237,2271.65
1238,2275.3
1239,2281.29
1240,2278.07
1241,2267.28
1242,2288.22
1243,2306.58
1244,2299.97
1245,2298.98
1246,2302.59
1247,2283.83
1248,2271.01
1249,2289.05
1250,2303.74
1251,2315.77
1252,2329.44
1253,2339.43
1254,2337.02
1255,2344.7
1256,2359.77
1257,2372.63
1258,2388.59
1259,2413.94
1260,2428.73
1261,2436.58
1262,2454.73
1263,2474.51
1264,2496.88
1265,2518.48
1266,2539.64
1267,2540.59
1268,2541.8
1269,2544.22
1270,2544.59
1271,2544.37
1272,2557.7
1273,2569.66
1274,2579.36
1275,2569.63
1276,2555.02
1277,2567.77
1278,2577.63
1279,2583.7
1280,2573.05
1281,2558.03
1282,2544.05
1283,2542.13
1284,2552.47
1285,2548.81
1286,2540.05
1287,2521.17
1288,2506.09
1289,2493.9
1290,2487.92
1291,2488.01
1292,2502.04
1293,2501.87
1294,2493.87
1295,2478
1296,2467.09
1297,2464.65
1298,2454.13
1299,2442.42
1300,2446.7
1301,2443.9
1302,2432.89
1303,2430.49
1304,2430.6
1305,2433.66
1306,2430.17
1307,2421.58
1308,2430.14
1309,2434.04
1310,2424.22
1311,2411.1
1312,2397.11
1313,2399.56
1314,2402.53
1315,2406.22
1316,2402.15
1317,2397
1318,2397
1319,2384.45
1320,2361.06
1321,2366.3
1322,2368.09
1323,2354.53
1324,2353.7
1325,2359.14
1326,2362.22
1327,2355.9
1328,2336.77
1329,2332.01
1330,2331.34
1331,2333.2
1332,2328.4
1333,2318.51
1334,2316.24
1335,2317.88
1336,2326.54
1337,2322.79
1338,2316.13
1339,2327.28
1340,2342.07
1341,2360.67
1342,2358.12
1343,2352.54
1344,2346.95
1345,2342.98
1346,2340.2
1347,2345.17
1348,2346.39
1349,2342.66
1350,2345.07
1351,2349.73
1352,2357.82
1353,2356.46
1354,2349
1355,2349.62
1356,2351.97
1357,2356.96
1358,2353.06
1359,2343.77
1360,2321.31
1361,2312
1362,2312
1363,2326.13
1364,2327.82
1365,2309.08
1366,2292.77
1367,2281.61
1368,2290.37
1369,2289.24
1370,2281.1
1371,2267.39
1372,2259.73
1373,2261.61
1374,2250.53
1375,2234.73
1376,2213.4
1377,2204.62
1378,2203.8
1379,2188.1
1380,2177.15
1381,2172.75
1382,2157.93
1383,2143.65
1384,2137.99
1385,2127.02
1386,2115.21
1387,2135.36
1388,2130.25
1389,2096.86
1390,2081.85
1391,2074.88
1392,2081.19
1393,2075.35
1394,2065.43
1395,2061.01
1396,2051.78
1397,2038.51
1398,2048.94
1399,2048.33
1400,2028.09
1401,2038.14
1402,2047.32
1403,2025.79
1404,2013.56
1405,2007.64
1406,2018.41
1407,2015.76
1408,1998.64
1409,2008.47
1410,2013.88
1411,2004.35
1412,2002.96
1413,2002.75
1414,1995.76
1415,1997.61
1416,2005.38
1417,2017.47
1418,2022.54
1419,2019.35
1420,2008.25
1421,2001.42
1422,2005.88
1423,2015.6
1424,2022.01
1425,2005.42
1426,2008.39
1427,2021.97
1428,1999.63
1429,1995.66
1430,2011.64
1431,2004.82
1432,2001.24
1433,2007.64
1434,2000.95
1435,1993.14
1436,1993.78
1437,1996.54
1438,2000.91
1439,2009.88
1440,2002.55
1441,1981.39
1442,1975.33
1443,1977.97
1444,1992.1
1445,1986.22
1446,1976.43
1447,1964.86
1448,1963.94
1449,1965.75
1450,1964.46
1451,1958.62
1452,1950.77
1453,1948.19
1454,1944.58
1455,1940.07
1456,1933.65
1457,1930.28
1458,1930.92
1459,1928.72
1460,1928.51
1461,1933.03
1462,1925.88
1463,1916.15
1464,1908.4
1465,1901.53
1466,1895.44
1467,1891.55
1468,1890
1469,1889.86
1470,1887.26
1471,1878.7
1472,1864.44
1473,1863.37
1474,1870.76
1475,1888.93
1476,1875.47
1477,1866.02
1478,1871.87
1479,1877.72
1480,1875.38
1481,1850.67
1482,1853.02
1483,1862.25
1484,1858.34
1485,1858.71
1486,1861
1487,1861
1488,1855.64
1489,1847.66
1490,1860.06
1491,1857.17
1492,1840.2
1493,1852.26
1494,1854.22
1495,1843.77
1496,1835.73
1497,1840.87
1498,1865.73
1499,1854.23
1500,1841.22
1501,1835.98
1502,1830.21
1503,1827.88
1504,1834.44
1505,1832.5
1506,1826.36
1507,1815.21
1508,1816.21
1509,1819.63
1510,1812.4
1511,1814.82
1512,1819.75
1513,1811.2
1514,1812.11
1515,1816.89
1516,1806.36
1517,1802.77
1518,1804.22
1519,1807.52
1520,1811.18
1521,1814.73
1522,1806.81
1523,1799.24
1524,1792.02
1525,1798.63
1526,1800.71
1527,1798.06
1528,1813.49
1529,1830.28
1530,1848.14
1531,1840.18
1532,1840.54
1533,1853.13
1534,1870.03
1535,1882.23
1536,1887.54
1537,1900.11
1538,1902.62
1539,1889.35
1540,1905.29
1541,1918.82
1542,1923.47
1543,1931.66
1544,1943.86
1545,1961.82
1546,1973.94
1547,1981.5
1548,1982.83
1549,1992.89
1550,2001.24
1551,2004.57
1552,2014.3
1553,2020.26
1554,2018.25
1555,2029.66
1556,2043.26
1557,2057.28
1558,2036.71
1559,2024.31
1560,2033
1561,2036.96
1562,2037.69
1563,2034.35
1564,2014.19
1565,2005.59
1566,2016.98
1567,2009.45
1568,2007.37
1569,2015.42
1570,2005.41
1571,1990.48
1572,1971
1573,1959.17
1574,1955.78
1575,1961.83
1576,1939.12
1577,1919.82
1578,1905.02
1579,1900.29
1580,1890.74
1581,1876.98
1582,1876.31
1583,1870.12
1584,1859.75
1585,1855.7
1586,1848.52
1587,1839.34
1588,1832.58
1589,1839.18
1590,1847.99
1591,1818.92
1592,1807.22
1593,1806.47
1594,1814.59
1595,1813.67
1596,1810.15
1597,1810.83
1598,1817.61
1599,1819.89
1600,1804.97
1601,1792.22
1602,1793.55
1603,1822.75
1604,1820.04
1605,1819.94
1606,1832.85
1607,1834
1608,1837.3
1609,1844.78
1610,1859.54
1611,1858.11
1612,1841.69
1613,1862.14
1614,1859.02
1615,1842.73
1616,1870.02
1617,1873.94
1618,1864.84
1619,1858.01
1620,1853.11
1621,1849.83
1622,1849.15
1623,1838.88
1624,1820.89
1625,1792.14
1626,1800.89
1627,1802.41
1628,1783.23
1629,1764.68
1630,1747.47
1631,1731.93
1632,1728.5
1633,1727.77
1634,1727.12
1635,1709.25
1636,1690.94
1637,1673.45
1638,1660.39
1639,1642.22
1640,1626.22
1641,1620.02
1642,1612.68
1643,1602.99
1644,1589.89
1645,1589.64
1646,1576.38
1647,1548.67
1648,1538.31
1649,1536.01
1650,1536.94
1651,1521.74
1652,1516.05
1653,1512.66
1654,1502.98
1655,1508.71
1656,1505.03
1657,1476.64
1658,1480.91
1659,1477.29
1660,1461.33
1661,1477.28
1662,1474.36
1663,1459.33
1664,1454.47
1665,1453
1666,1451.57
1667,1446.01
1668,1437.02
1669,1432.06
1670,1434.84
1671,1421.2
1672,1421.77
1673,1435.05
1674,1421.81
1675,1408.57
1676,1397.29
1677,1393.81
1678,1392.46
1679,1392.47
1680,1393.87
1681,1375.68
1682,1366.98
1683,1370.82
1684,1366.62
1685,1367.57
1686,1370.36
1687,1366.86
1688,1359.65
1689,1352.85
1690,1349.34
1691,1351.53
1692,1352
1693,1349.61
1694,1341.89
1695,1333.72
1696,1325.72
1697,1319.39
1698,1310.32
1699,1299.47
1700,1286.81
1701,1289.3
1702,1289.91
1703,1286.65
1704,1272.56
1705,1271.82
1706,1273.81
1707,1265.35
1708,1261.03
1709,1259.3
1710,1259.91
1711,1248.61
1712,1246.93
1713,1250.25
1714,1246
1715,1247.16
1716,1244.04
1717,1229.88
1718,1228.34
1719,1227.25
1720,1225.18
1721,1218.09
1722,1225.01
1723,1228.96
1724,1211.92
1725,1219.45
1726,1215.46
1727,1197.41
1728,1203.1
1729,1200.26
1730,1194.44
1731,1192.31
1732,1196.87
1733,1200
1734,1199.76
1735,1194.77
1736,1196.68
1737,1195.45
1738,1172.61
1739,1179.82
1740,1187.63
1741,1188.94
1742,1187.51
1743,1188.84
1744,1188.55
1745,1178.54
1746,1181.24
1747,1184
1748,1184
1749,1184
1750,1178.33
1751,1173.89
1752,1181.07
1753,1173.88
1754,1171.74
1755,1177.55
1756,1184.01
1757,1173.05
1758,1165.65
1759,1184.35
1760,1178.78
1761,1175.75
1762,1175.46
1763,1163.93
1764,1174.44
1765,1181.86
1766,1170.32
1767,1162.28
1768,1158.15
1769,1157
1770,1157
1771,1149.91
1772,1145
1773,1145.58
1774,1157.16
1775,1157.61
1776,1153.58
1777,1152.14
1778,1136.89
1779,1130.91
1780,1133.89
1781,1133.17
1782,1131.88
1783,1132.99
1784,1138.03
1785,1140.21
1786,1134.51
1787,1122.43
1788,1104.97
1789,1117.2
1790,1120.89
1791,1113.39
1792,1109.02
1793,1113.03
1794,1113.25
1795,1103.77
1796,1094.29
1797,1102.92
1798,1110.41
1799,1090.69
1800,1101.03
1801,1107.4
1802,1107.35
1803,1103.69
1804,1101.81
1805,1101
1806,1100.24
1807,1090.71
1808,1090.1
1809,1093.8
1810,1098.94
1811,1110.6
1812,1109.03
1813,1102
1814,1102
1815,1099.35
1816,1101.19
1817,1105.46
1818,1102.52
1819,1099.58
1820,1098
1821,1098.95
1822,1107.79
1823,1102.25
1824,1097.46
1825,1101.06
1826,1102.53
1827,1098.96
1828,1095
1829,1095
1830,1087.78
1831,1086.85
1832,1092.03
1833,1103.13
1834,1084.21
1835,1079.23
1836,1084.34
1837,1081.38
1838,1084.88
1839,1080
1840,1069.66
1841,1073.37
1842,1071.53
1843,1069.64
1844,1067.05
1845,1052.92
1846,1051.77
1847,1053.67
1848,1054.53
1849,1050.06
1850,1051.28
1851,1045.46
1852,1029.54
1853,1036.25
1854,1034.14
1855,1026.82
1856,1017.23
1857,1020.96
1858,1026.32
1859,1033.16
1860,1040.29
1861,1025.32
1862,1009.82
1863,1005.35
1864,1018.97
1865,1018.22
1866,1015.88
1867,1012.32
1868,1008.33
1869,1016.59
1870,1016.87
1871,1012.17
1872,1005
1873,1005
1874,1008.23
1875,1006.34
1876,995.308
1877,1000.58
1878,994.843
1879,988.392
1880,987.755
1881,997.56
1882,1002.27
1883,1005.29
1884,1007.23
1885,999.677
1886,1000.35
1887,1000.97
1888,998.096
1889,991.286
1890,994.912
1891,998.371
1892,999.515
1893,1002.55
1894,995.262
1895,994.63
1896,1001.13
1897,1006.45
1898,1004.28
1899,1007.4
1900,1010
1901,998.595
1902,993.674
1903,989.591
1904,984.813
1905,978.071
1906,990.261
1907,977.09
1908,959.673
1909,954.588
1910,962.982
1911,961.521
1912,958.313
1913,956.463
1914,952.642
1915,953.909
1916,954.198
1917,957.322
1918,977.224
1919,972.723
1920,967.218
1921,965.15
1922,968.983
1923,973.582
1924,986.152
1925,990.326
1926,977.133
1927,978.67
1928,982.017
1929,976.182
1930,962.717
##>>>>>End Processed Spectral Data<<<<<
