##NAME:²É¼¯Í¼Æ×
##X_AXIS:Raman Shift(cm-1)
##Y_AXIS:ORIGINAL_REDUCE_DARK
##DATE:2025-03-15
##TIME:11:33:01
##LASERLENGTH:785
##LASERLEVEL:120
##INTGRTIME:5000
##>>>>>Begin Processed Spectral Data<<<<<
158,235
159,257.93
160,283.43
161,329.551
162,388.059
163,454.781
164,536.653
165,621.056
166,734.686
167,848.316
168,1002.3
169,1165.79
170,1349.57
171,1550.64
172,1751.02
173,1949.56
174,2148.14
175,2352.53
176,2556.93
177,2731.32
178,2895.2
179,3044.59
180,3178.07
181,3298.7
182,3372.11
183,3445.52
184,3496.21
185,3545.77
186,3600.56
187,3657.67
188,3699.8
189,3722.4
190,3749.14
191,3795.24
192,3841.34
193,3876.44
194,3910.59
195,3939.14
196,3964.88
197,4001.98
198,4055.27
199,4104.92
200,4135.58
201,4166.23
202,4196.1
203,4225.88
204,4260.38
205,4297.3
206,4327.99
207,4349.8
208,4371.9
209,4395.5
210,4419.11
211,4410.75
212,4399.61
213,4413.47
214,4439.33
215,4457.28
216,4464.86
217,4472.79
218,4482.16
219,4491.54
220,4498.37
221,4505.07
222,4505.73
223,4503.94
224,4509.15
225,4522.11
226,4529.98
227,4521.48
228,4513
229,4511.65
230,4510.31
231,4519.3
232,4531.39
233,4534.12
234,4528.74
235,4528.14
236,4538.46
237,4546.89
238,4532.08
239,4517.28
240,4537.8
241,4564.74
242,4573.05
243,4569.91
244,4570.3
245,4576.14
246,4583.42
247,4597.81
248,4612.2
249,4616.4
250,4620
251,4626.2
252,4633.41
253,4645.59
254,4662.71
255,4678.05
256,4688.87
257,4699.34
258,4704.76
259,4710.17
260,4722.08
261,4735.17
262,4744.56
263,4751.78
264,4761.27
265,4773.92
266,4783.72
267,4782.37
268,4781.01
269,4783.24
270,4785.5
271,4778.23
272,4768.27
273,4766.85
274,4771.83
275,4776.65
276,4781.18
277,4784.86
278,4783.95
279,4783.04
280,4763.15
281,4742.29
282,4739.71
283,4743.34
284,4749.2
285,4756.92
286,4757.49
287,4744.31
288,4732.03
289,4725.21
290,4718.39
291,4717.57
292,4717.12
293,4713.61
294,4709.06
295,4697.26
296,4679.5
297,4664.79
298,4655.67
299,4650.24
300,4664.38
301,4678.52
302,4654.32
303,4628.77
304,4600.38
305,4571.16
306,4551.26
307,4538.02
308,4528.38
309,4524.26
310,4514.27
311,4481.8
312,4449.19
313,4410.29
314,4371.4
315,4349.31
316,4330.54
317,4308.77
318,4285.41
319,4259.89
320,4231.92
321,4205.8
322,4184.24
323,4161.55
324,4129.43
325,4097.3
326,4077.52
327,4058.69
328,4040.2
329,4021.82
330,4016.9
331,4021.96
332,4020.41
333,4008.91
334,3996.06
335,3978.57
336,3961.32
337,3948.43
338,3935.53
339,3931.97
340,3929.67
341,3934.25
342,3941.62
343,3928.74
344,3898.76
345,3879.31
346,3877.46
347,3878.88
348,3892.74
349,3905.72
350,3899.25
351,3892.78
352,3872.49
353,3850.3
354,3848.31
355,3854.32
356,3866.5
357,3883.63
358,3887.24
359,3870.1
360,3855.47
361,3848.98
362,3842.24
363,3832.5
364,3822.76
365,3830.12
366,3838.94
367,3831.75
368,3819.68
369,3820.41
370,3829.23
371,3834.85
372,3836.71
373,3836.14
374,3830.09
375,3824.19
376,3819.07
377,3814.02
378,3816.82
379,3819.61
380,3813.98
381,3806.99
382,3804.33
383,3803.4
384,3802.47
385,3801.54
386,3797.63
387,3789.69
388,3784.92
389,3788.19
390,3789.1
391,3775.55
392,3762
393,3758.73
394,3755.45
395,3767.48
396,3781.98
397,3772.46
398,3753.74
399,3753.41
400,3766.06
401,3767.3
402,3754.65
403,3743.18
404,3734.27
405,3728.63
406,3737.55
407,3746.34
408,3752.91
409,3759.48
410,3766.06
411,3772.63
412,3753.91
413,3728.54
414,3724.37
415,3730.95
416,3730.97
417,3725.33
418,3724.51
419,3730.63
420,3732.44
421,3723.49
422,3717
423,3723.12
424,3728.71
425,3721.64
426,3714.57
427,3710.09
428,3705.85
429,3711.04
430,3718.6
431,3714.24
432,3704.32
433,3696.8
434,3691.13
435,3699.45
436,3724.99
437,3744.05
438,3750.2
439,3751.25
440,3734.21
441,3719.31
442,3722.15
443,3724.99
444,3737.28
445,3749.6
446,3759.83
447,3769.79
448,3781.23
449,3793.09
450,3800.5
451,3805.72
452,3811.48
453,3817.66
454,3821.22
455,3821.69
456,3824.02
457,3829.73
458,3829.56
459,3811.96
460,3797.79
461,3803.02
462,3807.38
463,3794.99
464,3782.61
465,3790.61
466,3799.67
467,3779.44
468,3754.16
469,3753.05
470,3759.73
471,3762.63
472,3763.59
473,3768.87
474,3777.47
475,3787.2
476,3798.19
477,3801.36
478,3791.79
479,3784.31
480,3781.91
481,3779.23
482,3775.4
483,3769.9
484,3751.22
485,3732.9
486,3729.07
487,3725.23
488,3710.14
489,3694.31
490,3678.06
491,3661.75
492,3659.48
493,3661.4
494,3674.89
495,3693.63
496,3683.79
497,3655.43
498,3654.16
499,3677.25
500,3696.03
501,3709.51
502,3717.47
503,3716.02
504,3716.13
505,3719.99
506,3721.84
507,3716.54
508,3712.62
509,3716.97
510,3720.42
511,3712.21
512,3704.01
513,3693.39
514,3682.76
515,3687.38
516,3693.18
517,3685.7
518,3676.03
519,3669.03
520,3662.74
521,3665.55
522,3671.84
523,3667.63
524,3657.95
525,3659.74
526,3669.44
527,3672.2
528,3668.81
529,3667.45
530,3668.42
531,3664.87
532,3654.67
533,3648.5
534,3649.96
535,3647.52
536,3635.37
537,3623.67
538,3613.45
539,3603.24
540,3593.03
541,3584.45
542,3588.35
543,3591.15
544,3577.51
545,3563.94
546,3557.61
547,3551.27
548,3529.52
549,3507.09
550,3484.21
551,3461.28
552,3462.18
553,3467.07
554,3456.94
555,3443.26
556,3440.37
557,3440.86
558,3442.75
559,3445.19
560,3438.13
561,3426.39
562,3420.47
563,3418.02
564,3411.57
565,3402.26
566,3398
567,3398
568,3394.55
569,3387.69
570,3389.45
571,3401.23
572,3403.83
573,3394.01
574,3389.91
575,3394.82
576,3398.87
577,3401.32
578,3405.35
579,3412.72
580,3416.46
581,3411.05
582,3401.16
583,3378.02
584,3360.98
585,3365.41
586,3370.41
587,3377.81
588,3384.4
589,3386.87
590,3389.13
591,3390.12
592,3390.36
593,3384.43
594,3379.12
595,3380.61
596,3381.68
597,3376.24
598,3370.26
599,3349.49
600,3329.15
601,3340.04
602,3350.92
603,3340.18
604,3329.29
605,3325.14
606,3321.18
607,3312.95
608,3304.53
609,3290.98
610,3277.09
611,3278.29
612,3280.77
613,3284.15
614,3287.63
615,3289.77
616,3291.76
617,3278.88
618,3263.97
619,3271.06
620,3281.51
621,3285.56
622,3288.55
623,3293.64
624,3299.12
625,3300
626,3300
627,3308.72
628,3319.18
629,3316.05
630,3310.07
631,3330.73
632,3357.19
633,3373.85
634,3388.33
635,3391.81
636,3392.81
637,3398.29
638,3404.79
639,3410.07
640,3415.07
641,3408.66
642,3399.66
643,3400.45
644,3403.46
645,3402.36
646,3400.35
647,3396.7
648,3392.69
649,3394.49
650,3397.5
651,3386.26
652,3372.21
653,3369.15
654,3368.15
655,3359.87
656,3350.33
657,3357.66
658,3367.71
659,3358.47
660,3346.4
661,3345
662,3345
663,3326.48
664,3305.83
665,3307.21
666,3310.74
667,3311.47
668,3311.97
669,3286.78
670,3260.05
671,3260.94
672,3262.96
673,3254.59
674,3246.01
675,3241.96
676,3237.85
677,3230.26
678,3223.04
679,3224.05
680,3225.86
681,3239.02
682,3250.82
683,3248.79
684,3247.64
685,3253.22
686,3258.36
687,3260.89
688,3261.45
689,3252.32
690,3245.7
691,3249.26
692,3252.23
693,3253.25
694,3252.69
695,3247.6
696,3247.4
697,3259.09
698,3263.21
699,3251.51
700,3253.66
701,3280.64
702,3294.59
703,3288.48
704,3284.78
705,3284.27
706,3285.67
707,3289.24
708,3287.64
709,3281.01
710,3284.97
711,3297.73
712,3301.2
713,3298.14
714,3290.57
715,3280.35
716,3291.08
717,3312.04
718,3309.94
719,3298.69
720,3306.13
721,3319.44
722,3315.38
723,3307.19
724,3301.18
725,3295.54
726,3295.46
727,3295.98
728,3288.67
729,3280.94
730,3264.51
731,3249.86
732,3265.26
733,3278.67
734,3275.58
735,3271.41
736,3261.64
737,3255.23
738,3260.89
739,3266.13
740,3270.24
741,3272.83
742,3272.31
743,3271
744,3268.42
745,3275.79
746,3295.38
747,3306.84
748,3310.45
749,3314.95
750,3320.11
751,3325.6
752,3331.28
753,3336.24
754,3340.89
755,3343.18
756,3344.73
757,3355.71
758,3368.64
759,3354.71
760,3337.63
761,3341.49
762,3346.77
763,3370.61
764,3391.57
765,3387.43
766,3383.1
767,3377.91
768,3373.62
769,3372.06
770,3372
771,3375.11
772,3375.77
773,3372.65
774,3366.85
775,3358.01
776,3352.58
777,3349.98
778,3342.18
779,3331.24
780,3323.97
781,3318.24
782,3321.08
783,3326.29
784,3309.43
785,3289.09
786,3284.54
787,3281.18
788,3287.45
789,3292.35
790,3286.6
791,3282.62
792,3285.76
793,3292.03
794,3306.14
795,3310.52
796,3298.48
797,3290.07
798,3285.88
799,3283.13
800,3281.56
801,3288.73
802,3300.78
803,3310.53
804,3319.45
805,3303.68
806,3282.69
807,3298.37
808,3316.9
809,3309.54
810,3303.52
811,3308.25
812,3307.97
813,3288.52
814,3279.66
815,3294.91
816,3296.13
817,3276.65
818,3280.28
819,3306.62
820,3307.74
821,3292.46
822,3282.03
823,3273.59
824,3280.56
825,3291.11
826,3299.73
827,3307.69
828,3292.9
829,3278.11
830,3263.32
831,3249.51
832,3238.94
833,3235.82
834,3246.93
835,3236.68
836,3200.69
837,3200.23
838,3227.24
839,3223.11
840,3204.03
841,3206.69
842,3215.17
843,3202.12
844,3187.04
845,3189.16
846,3191
847,3191
848,3190.6
849,3189.01
850,3190.74
851,3198.18
852,3205.63
853,3213.08
854,3209.86
855,3199.74
856,3199.33
857,3202.52
858,3210.25
859,3218.78
860,3221.08
861,3223.11
862,3224.17
863,3228.46
864,3243.94
865,3254
866,3254
867,3262.17
868,3279.26
869,3277.9
870,3264.53
871,3276.35
872,3297.21
873,3304.17
874,3308.99
875,3309.53
876,3310.49
877,3314.24
878,3318.98
879,3326.49
880,3328.22
881,3321.25
882,3325.46
883,3339.41
884,3348.68
885,3355.67
886,3372.65
887,3391.99
888,3390.96
889,3387.73
890,3373.21
891,3362
892,3362
893,3358.61
894,3349.46
895,3350.53
896,3361.31
897,3351.18
898,3330.16
899,3319.08
900,3310.45
901,3302.84
902,3296.26
903,3298.96
904,3295.35
905,3272.12
906,3265.21
907,3283.59
908,3282.61
909,3265.3
910,3259.25
911,3258.17
912,3264.87
913,3272.99
914,3270.29
915,3265.67
916,3250.5
917,3244.18
918,3257.74
919,3268.28
920,3275.33
921,3273.95
922,3267.43
923,3257.1
924,3245.69
925,3259.3
926,3272.57
927,3268.21
928,3264.72
929,3263.63
930,3268.3
931,3280.83
932,3278.65
933,3266.12
934,3264.64
935,3266.82
936,3277
937,3287.45
938,3292.91
939,3297.27
940,3298.37
941,3296.94
942,3292.02
943,3297.08
944,3309.1
945,3314.49
946,3317.77
947,3323.09
948,3327.16
949,3318.94
950,3311.79
951,3307.41
952,3305.49
953,3306.59
954,3310.78
955,3316.81
956,3303.9
957,3286.34
958,3302.15
959,3315.74
960,3314.09
961,3308.35
962,3294.61
963,3286
964,3282.15
965,3275.99
966,3268.84
967,3265.57
968,3261.9
969,3245.38
970,3233.14
971,3233.69
972,3230.15
973,3221.32
974,3210.44
975,3198.3
976,3193.76
977,3191
978,3197.62
979,3201.75
980,3195.12
981,3188.9
982,3183.37
983,3182.26
984,3184.48
985,3195.99
986,3210.38
987,3204.11
988,3198.42
989,3201.19
990,3209.92
991,3229.89
992,3244.73
993,3255.27
994,3256.77
995,3255.1
996,3261.26
997,3269.85
998,3290.42
999,3305.51
1000,3309.96
1001,3308.69
1002,3302.57
1003,3306.38
1004,3313.61
1005,3327.71
1006,3343.11
1007,3363.73
1008,3374.42
1009,3367.17
1010,3360.55
1011,3354.41
1012,3354.29
1013,3355.96
1014,3348.35
1015,3345.05
1016,3361.25
1017,3373.67
1018,3380.38
1019,3369.7
1020,3347.89
1021,3352.28
1022,3361.88
1023,3358.52
1024,3354.04
1025,3346.2
1026,3337.05
1027,3326.4
1028,3321.85
1029,3320.17
1030,3335.12
1031,3347.91
1032,3329.94
1033,3311.97
1034,3293.99
1035,3284.44
1036,3281.63
1037,3283.18
1038,3286
1039,3284.31
1040,3286.5
1041,3302.26
1042,3307.48
1043,3299.6
1044,3294.73
1045,3291.35
1046,3282.4
1047,3274.49
1048,3278.44
1049,3280.4
1050,3278.71
1051,3276.69
1052,3274.43
1053,3281.79
1054,3291.05
1055,3292.18
1056,3296.86
1057,3311.01
1058,3326.02
1059,3341.87
1060,3352.29
1061,3360.78
1062,3368.18
1063,3378.53
1064,3400.08
1065,3411.24
1066,3409.54
1067,3409
1068,3409
1069,3409.52
1070,3408.98
1071,3402.73
1072,3402.9
1073,3412.56
1074,3415.27
1075,3414.13
1076,3416.52
1077,3417.66
1078,3407.41
1079,3399.51
1080,3395.52
1081,3381.98
1082,3362.59
1083,3371.86
1084,3384.91
1085,3392.9
1086,3390.15
1087,3368.44
1088,3362.09
1089,3365.52
1090,3356.15
1091,3344.72
1092,3333.28
1093,3326.83
1094,3329.12
1095,3324.34
1096,3315.18
1097,3305.02
1098,3294.05
1099,3278.57
1100,3270.1
1101,3272.96
1102,3274.73
1103,3275.88
1104,3261.07
1105,3246.91
1106,3246.34
1107,3239.32
1108,3223.23
1109,3206.35
1110,3189.09
1111,3202.56
1112,3212.36
1113,3199.11
1114,3189.07
1115,3182.73
1116,3183.1
1117,3185.98
1118,3179.13
1119,3176.09
1120,3184.17
1121,3193.17
1122,3202.98
1123,3201.33
1124,3197.37
1125,3203.15
1126,3210.86
1127,3222.43
1128,3240.65
1129,3263.21
1130,3244.18
1131,3227.24
1132,3255.63
1133,3281.32
1134,3303.35
1135,3318.1
1136,3329.7
1137,3346.39
1138,3361.18
1139,3369.89
1140,3377.68
1141,3384.65
1142,3408.98
1143,3434.45
1144,3428.05
1145,3423.57
1146,3422.41
1147,3424.26
1148,3427.76
1149,3417.7
1150,3410.62
1151,3418.19
1152,3410.97
1153,3388.81
1154,3389.02
1155,3396.09
1156,3411.85
1157,3419.3
1158,3411.7
1159,3402.98
1160,3393.63
1161,3397.36
1162,3403.08
1163,3412.44
1164,3405.29
1165,3382.46
1166,3390.25
1167,3403.71
1168,3400.78
1169,3400.15
1170,3403.08
1171,3399.18
1172,3392.14
1173,3377.61
1174,3369.11
1175,3376.75
1176,3373.93
1177,3363.35
1178,3372.26
1179,3379.78
1180,3366.84
1181,3361.39
1182,3364.33
1183,3367.27
1184,3368.74
1185,3351.65
1186,3340.78
1187,3340.19
1188,3348.03
1189,3359.82
1190,3373.95
1191,3381.94
1192,3374.86
1193,3364.59
1194,3352.19
1195,3363.83
1196,3373.24
1197,3364.96
1198,3365.01
1199,3372.71
1200,3396.17
1201,3418.83
1202,3417.65
1203,3413.23
1204,3404.93
1205,3411.65
1206,3421.56
1207,3416.22
1208,3417.47
1209,3428.75
1210,3445.11
1211,3462.48
1212,3444.05
1213,3437.76
1214,3454.41
1215,3469.09
1216,3482.77
1217,3499.98
1218,3510.19
1219,3504.23
1220,3511.31
1221,3526.21
1222,3532.08
1223,3540.34
1224,3556.45
1225,3571.15
1226,3584.88
1227,3596.97
1228,3606.29
1229,3607.49
1230,3607.66
1231,3607.06
1232,3619.35
1233,3632.71
1234,3644.68
1235,3649.33
1236,3648.14
1237,3664.45
1238,3678.48
1239,3676.08
1240,3684.22
1241,3701.01
1242,3705.12
1243,3710.36
1244,3725.98
1245,3736.64
1246,3743.25
1247,3728.03
1248,3712.66
1249,3706.65
1250,3709.73
1251,3719.96
1252,3739.92
1253,3758.57
1254,3769.42
1255,3794.18
1256,3829.14
1257,3841.97
1258,3857.22
1259,3884.98
1260,3915.29
1261,3947.29
1262,3980.45
1263,4010.16
1264,4031.32
1265,4052.48
1266,4073.64
1267,4090.06
1268,4109.4
1269,4134.83
1270,4138.07
1271,4131.07
1272,4133.49
1273,4131.79
1274,4123.31
1275,4124.54
1276,4129.34
1277,4133.59
1278,4131.01
1279,4119.47
1280,4115.09
1281,4106.5
1282,4060.29
1283,4049.67
1284,4075.22
1285,4065.51
1286,4050.83
1287,4040.48
1288,4033.58
1289,4029.32
1290,4028.44
1291,4023.82
1292,4009.18
1293,4001.63
1294,3998.04
1295,4003.54
1296,4002.93
1297,3991.93
1298,3983.62
1299,3975.27
1300,3957.53
1301,3949.42
1302,3952.48
1303,3954.52
1304,3949.77
1305,3917.91
1306,3910.56
1307,3922.21
1308,3912.14
1309,3897.53
1310,3876.05
1311,3875.6
1312,3885.03
1313,3885.64
1314,3887.53
1315,3891.22
1316,3879.4
1317,3863.61
1318,3848.84
1319,3843.98
1320,3847.68
1321,3839.01
1322,3832
1323,3832
1324,3833.64
1325,3835.32
1326,3819.9
1327,3804.47
1328,3789.04
1329,3783.02
1330,3780
1331,3780
1332,3768.11
1333,3747.08
1334,3765.36
1335,3773.04
1336,3755.09
1337,3749.11
1338,3749.13
1339,3760.28
1340,3763.88
1341,3759.54
1342,3750.32
1343,3748.37
1344,3768.85
1345,3763.47
1346,3744.85
1347,3741.12
1348,3744.36
1349,3756.79
1350,3760.53
1351,3762.27
1352,3763.51
1353,3749.25
1354,3725
1355,3726.25
1356,3724.28
1357,3717.43
1358,3711.06
1359,3704.12
1360,3694.14
1361,3703.52
1362,3726.62
1363,3691.98
1364,3673.11
1365,3681.23
1366,3679.57
1367,3672.33
1368,3652.31
1369,3645.47
1370,3647.97
1371,3649.86
1372,3639.98
1373,3611.78
1374,3589.55
1375,3571.74
1376,3565.47
1377,3545.12
1378,3515.97
1379,3513.46
1380,3495.35
1381,3455.76
1382,3468.29
1383,3483
1384,3470.42
1385,3444.77
1386,3412.64
1387,3389.97
1388,3380.97
1389,3387.27
1390,3385.77
1391,3375.54
1392,3347.16
1393,3329.56
1394,3317.03
1395,3309.45
1396,3310.13
1397,3317.71
1398,3294.31
1399,3275.64
1400,3266.79
1401,3270.55
1402,3271.18
1403,3249.02
1404,3231.3
1405,3216.74
1406,3212.3
1407,3205.12
1408,3194.97
1409,3197.44
1410,3201.87
1411,3207.59
1412,3213.78
1413,3218.32
1414,3214.51
1415,3213.38
1416,3213.84
1417,3208.75
1418,3203.95
1419,3199.5
1420,3198.43
1421,3196.78
1422,3192.96
1423,3198.69
1424,3205.54
1425,3202.99
1426,3193.4
1427,3180.23
1428,3185.34
1429,3188.31
1430,3188.95
1431,3172.05
1432,3167.17
1433,3187.63
1434,3176.39
1435,3157.27
1436,3140.62
1437,3148.57
1438,3166.81
1439,3164.88
1440,3162.96
1441,3161.04
1442,3135.18
1443,3121.09
1444,3123.65
1445,3107.88
1446,3091.43
1447,3079.86
1448,3093.93
1449,3108.32
1450,3089.66
1451,3081.76
1452,3079.37
1453,3072.28
1454,3058.28
1455,3038.3
1456,3034.83
1457,3034.68
1458,3038.55
1459,3021.89
1460,3011.16
1461,3017.62
1462,3009.35
1463,2999.23
1464,2996
1465,2978.91
1466,2961.53
1467,2979.01
1468,2973.18
1469,2952.5
1470,2943.43
1471,2933.36
1472,2922.34
1473,2922.63
1474,2927.44
1475,2937.82
1476,2947.63
1477,2945.69
1478,2921.65
1479,2924.86
1480,2929.74
1481,2921.28
1482,2922.8
1483,2922.85
1484,2901.37
1485,2900.42
1486,2908.45
1487,2903.88
1488,2897.02
1489,2889.9
1490,2906.87
1491,2909.23
1492,2898.13
1493,2910.91
1494,2914.42
1495,2906.57
1496,2905.39
1497,2899.29
1498,2884.9
1499,2879.59
1500,2882.13
1501,2897.19
1502,2882.95
1503,2864.43
1504,2851.97
1505,2857.49
1506,2863.98
1507,2855.45
1508,2852.53
1509,2849.76
1510,2837.93
1511,2825.67
1512,2815.19
1513,2816.51
1514,2816.18
1515,2813.68
1516,2801.17
1517,2798.32
1518,2801.33
1519,2791.44
1520,2792.45
1521,2801.77
1522,2795.18
1523,2796.11
1524,2804.04
1525,2815.27
1526,2817.12
1527,2809.19
1528,2807.06
1529,2810.9
1530,2821.49
1531,2839.01
1532,2861.55
1533,2890.02
1534,2888.3
1535,2889.07
1536,2896.36
1537,2902.45
1538,2909.76
1539,2919.05
1540,2910.46
1541,2913.9
1542,2939.14
1543,2969.11
1544,2990.03
1545,2995.35
1546,3000.68
1547,3007.25
1548,3015.9
1549,3026.31
1550,3034.98
1551,3040.32
1552,3051.46
1553,3065.95
1554,3084.63
1555,3090.5
1556,3090.5
1557,3083.82
1558,3094.73
1559,3104.53
1560,3108.54
1561,3103.08
1562,3087.5
1563,3058.05
1564,3064
1565,3068.38
1566,3064.36
1567,3042.03
1568,3023.79
1569,3013.73
1570,3014.87
1571,3011.89
1572,3002.49
1573,2961.22
1574,2942.33
1575,2951.74
1576,2938.93
1577,2923.84
1578,2907.02
1579,2907.67
1580,2898.66
1581,2880.1
1582,2849.1
1583,2828.75
1584,2819.21
1585,2838.78
1586,2835.65
1587,2816.21
1588,2797.97
1589,2801.02
1590,2813.97
1591,2806.54
1592,2793.75
1593,2777.95
1594,2761.03
1595,2756
1596,2753.09
1597,2740.21
1598,2743.61
1599,2749.44
1600,2747.41
1601,2750.8
1602,2754.89
1603,2757.6
1604,2771.35
1605,2783.86
1606,2791.34
1607,2791.38
1608,2796.1
1609,2807.66
1610,2813.95
1611,2821.1
1612,2829.25
1613,2836.75
1614,2845.41
1615,2854.96
1616,2864.51
1617,2861.94
1618,2852.5
1619,2843.62
1620,2822.21
1621,2804.15
1622,2813.04
1623,2803.81
1624,2781.41
1625,2741.72
1626,2728.38
1627,2718.12
1628,2705.79
1629,2679.98
1630,2663.38
1631,2657.48
1632,2630.72
1633,2606.65
1634,2586.86
1635,2585.48
1636,2560.43
1637,2525.04
1638,2499.6
1639,2497.59
1640,2500.22
1641,2494.02
1642,2455.63
1643,2428
1644,2428
1645,2411.94
1646,2395.36
1647,2379.29
1648,2357.2
1649,2348
1650,2349.12
1651,2357.41
1652,2351.44
1653,2339.33
1654,2328.26
1655,2301.21
1656,2282.22
1657,2285.68
1658,2274.06
1659,2268.61
1660,2271.64
1661,2254.3
1662,2243.38
1663,2238.77
1664,2244.32
1665,2233.4
1666,2217.13
1667,2206.01
1668,2213.11
1669,2210.19
1670,2184.44
1671,2170.52
1672,2159.76
1673,2153.5
1674,2174.4
1675,2177.56
1676,2164.09
1677,2125.03
1678,2116.54
1679,2117.23
1680,2117.93
1681,2118.63
1682,2116.02
1683,2109.73
1684,2103.44
1685,2093.71
1686,2085.03
1687,2090.63
1688,2089.88
1689,2081.56
1690,2061.93
1691,2056.84
1692,2050.99
1693,2042.61
1694,2034.89
1695,2028.04
1696,2020.44
1697,2007.79
1698,1993.49
1699,1987.02
1700,1995.46
1701,1973.59
1702,1959.82
1703,1954.52
1704,1939.01
1705,1932.57
1706,1931.91
1707,1935.44
1708,1928.88
1709,1921.01
1710,1913.93
1711,1904.03
1712,1890.79
1713,1881.77
1714,1902.99
1715,1906.38
1716,1897.8
1717,1877.27
1718,1873.34
1719,1870.51
1720,1868.49
1721,1872.75
1722,1852.48
1723,1836.88
1724,1856.76
1725,1848.28
1726,1843.36
1727,1845.9
1728,1844.48
1729,1832.16
1730,1822.89
1731,1837.84
1732,1823.55
1733,1811.71
1734,1809.03
1735,1809.75
1736,1809.54
1737,1807.96
1738,1803.68
1739,1810.21
1740,1804.28
1741,1781.89
1742,1803.33
1743,1804.57
1744,1797.87
1745,1801.45
1746,1797.76
1747,1798.22
1748,1805.73
1749,1819.35
1750,1812.2
1751,1796.92
1752,1789.03
1753,1781.13
1754,1781.11
1755,1789.73
1756,1798.35
1757,1799.01
1758,1793.09
1759,1780.14
1760,1796.72
1761,1796.22
1762,1780.1
1763,1780.82
1764,1777.77
1765,1774.74
1766,1774.02
1767,1783.82
1768,1775.72
1769,1761.18
1770,1772.02
1771,1764.55
1772,1757.37
1773,1756.55
1774,1767.4
1775,1767.13
1776,1758.43
1777,1742.49
1778,1744.28
1779,1741.8
1780,1734.89
1781,1734.17
1782,1732.33
1783,1722.77
1784,1702.22
1785,1718.21
1786,1721.68
1787,1718.24
1788,1715.33
1789,1702.09
1790,1700.6
1791,1707.86
1792,1692.56
1793,1690.12
1794,1688.98
1795,1683.9
1796,1679.52
1797,1675.62
1798,1675.9
1799,1686.13
1800,1680.98
1801,1684.39
1802,1688.9
1803,1660.37
1804,1668.07
1805,1673.41
1806,1667.53
1807,1686.58
1808,1683.61
1809,1674.71
1810,1671.04
1811,1668.82
1812,1668.46
1813,1668.23
1814,1665.29
1815,1672.3
1816,1676
1817,1675.46
1818,1672.52
1819,1675.64
1820,1676.29
1821,1673.08
1822,1673.82
1823,1674
1824,1670.8
1825,1663.14
1826,1666.84
1827,1662.44
1828,1655.78
1829,1652.08
1830,1639.72
1831,1644.24
1832,1654.8
1833,1654.06
1834,1647.86
1835,1637.81
1836,1629.97
1837,1638.86
1838,1640
1839,1630.67
1840,1616.66
1841,1620.37
1842,1624.08
1843,1618.09
1844,1604
1845,1604
1846,1607.54
1847,1604.98
1848,1594.05
1849,1585.12
1850,1581.86
1851,1575.66
1852,1564.9
1853,1576.09
1854,1565.2
1855,1557.58
1856,1565.59
1857,1558.87
1858,1565.64
1859,1569.84
1860,1561.04
1861,1540.83
1862,1546.18
1863,1546.71
1864,1523.25
1865,1529.24
1866,1535.24
1867,1534.8
1868,1524.24
1869,1530.25
1870,1533.06
1871,1533.72
1872,1532.72
1873,1526.71
1874,1529.85
1875,1530.21
1876,1521
1877,1521
1878,1520.45
1879,1520.91
1880,1523.12
1881,1524.62
1882,1513.66
1883,1507.57
1884,1512.69
1885,1509.67
1886,1513.12
1887,1512.9
1888,1508
1889,1515.57
1890,1528.05
1891,1525.35
1892,1511.19
1893,1524.07
1894,1522.78
1895,1522.21
1896,1522.38
1897,1514.79
1898,1506.51
1899,1504.76
1900,1502.8
1901,1486.83
1902,1491.05
1903,1492.04
1904,1484.92
1905,1466.06
1906,1476.73
1907,1479.47
1908,1477.26
1909,1471.93
1910,1456.67
1911,1449.52
1912,1443.22
1913,1435.46
1914,1431.64
1915,1446.27
1916,1446.18
1917,1434.83
1918,1443.25
1919,1462.83
1920,1465.44
1921,1461.99
1922,1471.96
1923,1472
1924,1486.87
1925,1495.52
1926,1485.4
1927,1490.01
1928,1483.16
1929,1466.83
1930,1448.42
##>>>>>End Processed Spectral Data<<<<<
