##NAME:²É¼¯Í¼Æ×
##X_AXIS:Raman Shift(cm-1)
##Y_AXIS:ORIGINAL_REDUCE_DARK
##DATE:2025-03-15
##TIME:23:32:08
##LASERLENGTH:785
##LASERLEVEL:120
##INTGRTIME:5000
##>>>>>Begin Processed Spectral Data<<<<<
158,114
159,119.93
160,126.525
161,141.642
162,161.878
163,183.511
164,207.72
165,232.071
166,258.056
167,284.041
168,315.031
169,347.201
170,387
171,433.299
172,478.405
173,520.319
174,562.204
175,598.845
176,635.485
177,663.967
178,689.586
179,702.579
180,701.695
181,699.487
182,692.411
183,685.336
184,668.983
185,652.169
186,632.281
187,611.029
188,590.733
189,571.684
190,552.868
191,535.138
192,517.407
193,503.75
194,490.445
195,474.474
196,457.167
197,442.97
198,433.201
199,425.143
200,426.031
201,426.92
202,414.463
203,400.682
204,398.056
205,401.17
206,403.367
207,404.257
208,404.485
209,401.367
210,398.25
211,395.951
212,393.723
213,389.386
214,384.036
215,385.439
216,395.699
217,404.426
218,406.658
219,408.89
220,404.329
221,399.417
222,399.272
223,401.06
224,403.272
225,405.954
226,406.3
227,399.141
228,392.011
229,396.487
230,400.964
231,404.066
232,406.753
233,411.123
234,416.95
235,419.906
236,416.319
237,413
238,413
239,413
240,411.86
241,410.513
242,411.946
243,415.091
244,418.236
245,421.383
246,424.302
247,426.101
248,427.9
249,428.85
250,429.75
251,429.675
252,429.224
253,430.808
254,434.412
255,438.78
256,445.091
257,450.971
258,450.52
259,450.069
260,453.439
261,457.501
262,459.855
263,461.209
264,461.247
265,459.44
266,457.357
267,454.192
268,451.028
269,452.794
270,454.603
271,462.067
272,471.119
273,470.343
274,462.191
275,455.519
276,451.44
277,448.284
278,450.097
279,451.911
280,446.392
281,440.494
282,441.373
283,444.55
284,446.988
285,448.805
286,449.223
287,446.95
288,444.936
289,444.481
290,444.026
291,440.141
292,436.046
293,432.288
294,428.646
295,425.003
296,421.359
297,420.447
298,424.549
299,427.855
300,426.943
301,426.031
302,422.915
303,419.721
304,414.404
305,408.469
306,407.868
307,411.065
308,408.125
309,395.784
310,385.052
311,380.479
312,375.924
313,372.263
314,368.602
315,368.383
316,368.84
317,363.029
318,353.866
319,342.981
320,330.146
321,323.637
322,332.811
323,340.458
324,335.41
325,330.362
326,325.311
327,320.259
328,321.414
329,324.631
330,325.208
331,323.829
332,320.797
333,315.277
334,308.512
335,297.466
336,287.412
337,295.241
338,303.07
339,296.285
340,287.53
341,285.656
342,286.578
343,284.999
344,281.309
345,279.864
346,282.172
347,283.712
348,282.326
349,280.762
350,275.217
351,269.671
352,267.781
353,266.394
354,268.32
355,271.558
356,273.514
357,274.44
358,274.452
359,273.062
360,270.142
361,262.264
362,255.543
363,262.499
364,269.455
365,273.849
366,278.025
367,276.865
368,274.08
369,270.724
370,267.008
371,267.778
372,273.82
373,276.853
374,273.133
375,269.78
376,268.384
377,266.946
378,260.893
379,254.841
380,259.616
381,266.138
382,269.998
383,272.795
384,268.425
385,258.631
386,256.174
387,263.641
388,270.054
389,273.79
390,276.212
391,270.605
392,264.999
393,261.26
394,257.52
395,263.443
396,270.927
397,277.399
398,283.483
399,284.627
400,282.286
401,277.621
402,270.124
403,265.445
404,266.852
405,268
406,268
407,268.145
408,270.961
409,273.777
410,270.972
411,267.685
412,264.768
413,261.949
414,265.367
415,271.949
416,271.215
417,264.158
418,258.84
419,256.016
420,253.73
421,252.788
422,252.23
423,253.644
424,254.769
425,249.111
426,243.453
427,243.868
428,244.812
429,246.133
430,247.549
431,251.22
432,255.943
433,256.666
434,254.303
435,252.788
436,252.315
437,252.947
438,255.786
439,257.896
440,257.422
441,256.388
442,250.704
443,245.02
444,242.166
445,239.323
446,243.625
447,248.841
448,248.893
449,247.469
450,244.773
451,241.45
452,241.875
453,245.2
454,248.09
455,250.466
456,251.831
457,251.356
458,249.921
459,245.639
460,242.43
461,245.286
462,248.024
463,248.5
464,248.977
465,244.468
466,239.701
467,241.034
468,243.418
469,244.361
470,244.838
471,245
472,245
473,244.73
474,244.252
475,241.739
476,236.959
477,232.542
478,228.716
479,228.083
480,235.261
481,239.463
482,231.802
483,225.43
484,229.263
485,232.94
486,230.543
487,228.146
488,232.954
489,238.23
490,233.262
491,226.543
492,230.919
493,238.602
494,244.636
495,249.921
496,250.25
497,247.366
498,242.454
499,235.72
500,233.293
501,236.18
502,237.109
503,234.702
504,233
505,233
506,232.79
507,231.826
508,231.069
509,231.552
510,232
511,232
512,232
513,234.895
514,237.792
515,238
516,238
517,237.17
518,236.203
519,237.912
520,240.331
521,241
522,241
523,242.592
524,245.014
525,245.713
526,245.228
527,249.104
528,256.862
529,255.567
530,243.923
531,235.819
532,232.907
533,233.18
534,239.494
535,242.747
536,238.374
537,233.777
538,228.428
539,223.833
540,222.86
541,222.17
542,223.631
543,224.848
544,222.413
545,220
546,220
547,220
548,222.801
549,225.727
550,227.327
551,228.791
552,223.979
553,218.121
554,217.395
555,217.883
556,218.744
557,219.722
558,220
559,220
560,217.376
561,213.462
562,211.387
563,210.407
564,212.574
565,216.983
566,217.671
567,215.22
568,213.507
569,212.527
570,209.728
571,204.821
572,203.461
573,206.897
574,208.809
575,208.318
576,209.386
577,213.318
578,213.655
579,206.278
580,199.46
581,194.047
582,191.491
583,197.399
584,202.654
585,205.61
586,207.811
587,206.826
588,205.519
589,202.56
590,200.665
591,205.6
592,209.786
593,207.811
594,205.508
595,199.58
596,194
597,194
598,194.477
599,207.831
600,220.993
601,220.498
602,220.003
603,205.741
604,191.382
605,198.233
606,205.665
607,204.107
608,202.124
609,202.93
610,203.922
611,202.628
612,201.14
613,202.8
614,204.786
615,207.66
616,210.641
617,211
618,211
619,202.799
620,193.348
621,199.253
622,207.713
623,211.956
624,215.441
625,214.327
626,212.334
627,212
628,212
629,209.939
630,207.445
631,214.792
632,224.274
633,229.268
634,233.262
635,232.37
636,230.372
637,231.627
638,233.627
639,230.338
640,225.836
641,229.483
642,234.988
643,234.365
644,232.362
645,231.179
646,230.177
647,228.762
648,227.258
649,224.922
650,222.414
651,217.389
652,211.869
653,213.539
654,216.552
655,214.006
656,210.489
657,210.433
658,210.936
659,212.755
660,214.767
661,215.89
662,216.896
663,215.645
664,214.134
665,210.785
666,207.258
667,201.393
668,195.343
669,199.282
670,203.822
671,201.09
672,198.062
673,195.527
674,193.002
675,196.03
676,198.979
677,197.968
678,197.064
679,198.582
680,199.834
681,197.303
682,195.318
683,198.863
684,202.584
685,207.651
686,212.862
687,218.946
688,224.429
689,226.966
690,228.296
691,224.743
692,222.347
693,223.871
694,225.657
695,228.198
696,227.634
697,219.5
698,213.011
699,209.959
700,209.641
701,214.222
702,218.203
703,221.258
704,219.933
705,212.799
706,208.762
707,208.252
708,207.742
709,207.232
710,207.836
711,209.367
712,205.205
713,197.034
714,192.715
715,190.671
716,194.809
717,201.967
718,197.774
719,189.077
720,187
721,187
722,190.308
723,194.406
724,200.257
725,206.406
726,198.662
727,189.433
728,188.511
729,188
730,188
731,187.943
732,186.916
733,186.557
734,191.696
735,195.499
736,192.414
737,191.007
738,195.637
739,198.859
740,198.344
741,198.852
742,201.427
743,203
744,203
745,204.619
746,208.229
747,212.89
748,218.564
749,219.232
750,216.135
751,214.019
752,212.469
753,215.243
754,219.893
755,221.788
756,222.822
757,216.575
758,208.815
759,211.243
760,214.866
761,215.499
762,215.9
763,212.791
764,209.469
765,204.284
766,200.541
767,203.654
768,206.256
769,207.294
770,207.17
771,204.573
772,204.844
773,209.521
774,212.733
775,214.293
776,216.137
777,218.218
778,222.575
779,228.301
780,230
781,230
782,230
783,230
784,229.549
785,229.028
786,223.077
787,216.939
788,214.851
789,213.237
790,215.326
791,216.584
792,214.494
793,211.956
794,208.296
795,206
796,206
797,204.069
798,199.882
799,198
800,198
801,199.008
802,200.58
803,200.232
804,199.183
805,199
806,199
807,199.965
808,200.918
809,195.141
810,189.711
811,187.083
812,185.871
813,190.077
814,193.963
815,197.12
816,196.446
817,190.13
818,186.734
819,186.208
820,188.872
821,193.615
822,194.627
823,194.1
824,191.432
825,188.267
826,189.45
827,191.033
828,192.618
829,193.933
830,193.404
831,192.503
832,190.388
833,190.636
834,195.397
835,195.12
836,188.769
837,186
838,186
839,185.642
840,185.112
841,189.599
842,195.431
843,189.298
844,182.037
845,184.16
846,186.425
847,189.611
848,191.069
849,187.35
850,185.196
851,185.727
852,185.741
853,185.209
854,187.91
855,192.7
856,190.895
857,186.635
858,183.733
859,181.069
860,186.194
861,190.317
862,183.382
863,179.553
864,186.492
865,192.309
866,196.047
867,194.937
868,188.526
869,187.62
870,190.293
871,192.18
872,193.785
873,189.364
874,184.012
875,178.657
876,175.047
877,183.084
878,188.575
879,186.967
880,183.862
881,178.498
882,176.574
883,177.647
884,180.883
885,185.179
886,185.131
887,184.056
888,186.038
889,187.812
890,185.66
891,184.738
892,187.967
893,188.006
894,182.621
895,182.212
896,186.522
897,185.874
898,182.64
899,181.135
900,180.056
901,185.117
902,189.949
903,189.409
904,187.817
905,182.954
906,182.121
907,187.527
908,192.054
909,195.84
910,191.369
911,183.251
912,182.458
913,182.999
914,185.706
915,187.252
916,182.374
917,178.833
918,178.29
919,180.27
920,185.154
921,186.325
922,185.239
923,184.152
924,183.066
925,182.489
926,182.706
927,189.777
928,193.436
929,187.45
930,184.461
931,185.55
932,184.401
933,181.677
934,185.505
935,191.501
936,190
937,187.818
938,185.636
939,183.59
940,181.952
941,181.458
942,182.55
943,180.105
944,175.186
945,178.151
946,183.619
947,186.036
948,187.718
949,184.981
950,181.486
951,176.008
952,173.988
953,176.181
954,178.374
955,180.568
956,183.203
957,185.946
958,181.694
959,178.698
960,183.093
961,185.814
962,185.264
963,184.144
964,182.494
965,179.302
966,175.451
967,178.889
968,183.293
969,187.7
970,189.754
971,184.794
972,181.037
973,178.831
974,177.312
975,176.209
976,182.713
977,190.994
978,183.273
979,176.896
980,176.343
981,176.839
982,179.051
983,182.211
984,186.084
985,189.113
986,191.881
987,186.17
988,181.336
989,183.552
990,185.192
991,185.747
992,189.618
993,196.275
994,186.074
995,169.976
996,178.913
997,188.849
998,194.961
999,199.189
1000,199.745
1001,195.788
1002,188
1003,186.827
1004,187.941
1005,193.799
1006,198.074
1007,191.945
1008,190.782
1009,198.588
1010,199.802
1011,195.897
1012,195.86
1013,196.976
1014,195.907
1015,193.95
1016,188.362
1017,187.449
1018,193.599
1019,193.613
1020,189.697
1021,187.62
1022,185.98
1023,185.42
1024,185.14
1025,185.7
1026,188.084
1027,192.569
1028,190.563
1029,185.514
1030,186.512
1031,187.543
1032,183.612
1033,183.262
1034,190.004
1035,190.502
1036,186.004
1037,183.689
1038,182.002
1039,184.81
1040,186.875
1041,186.312
1042,185.749
1043,185.185
1044,181.596
1045,176.523
1046,185.105
1047,193.441
1048,188.926
1049,183.418
1050,176.078
1051,177.921
1052,186.395
1053,184.793
1054,180.977
1055,180.411
1056,179.072
1057,175.677
1058,174
1059,174
1060,176.933
1061,180.899
1062,177.134
1063,174.238
1064,175.373
1065,177.268
1066,180.105
1067,182.166
1068,183.869
1069,179.281
1070,175.37
1071,177.643
1072,179.458
1073,180.596
1074,181
1075,181
1076,181
1077,181.074
1078,181.644
1079,181.146
1080,178.866
1081,181.182
1082,186.314
1083,182.552
1084,178
1085,178
1086,178.207
1087,178.778
1088,180.397
1089,182.682
1090,185.462
1091,187.294
1092,181.001
1093,177.625
1094,179.343
1095,179.647
1096,179.074
1097,179
1098,179.217
1099,180.937
1100,181.781
1101,181.207
1102,181.367
1103,181.941
1104,181.485
1105,179.931
1106,173.035
1107,170.192
1108,173.067
1109,178.662
1110,185.565
1111,179.529
1112,173.885
1113,173.309
1114,172.733
1115,172.157
1116,175.773
1117,180.962
1118,182.145
1119,181.954
1120,177.914
1121,175.392
1122,174.237
1123,179.966
1124,186.816
1125,183.926
1126,180.649
1127,176.601
1128,177.099
1129,180.571
1130,181.508
1131,182.52
1132,185.996
1133,188.736
1134,190.475
1135,188.166
1136,184.106
1137,193.042
1138,199.564
1139,197.822
1140,195.159
1141,191.674
1142,196.627
1143,203
1144,203
1145,201.507
1146,197.434
1147,196.755
1148,197.919
1149,197.458
1150,197.871
1151,201.951
1152,197.905
1153,185.659
1154,182.543
1155,182.684
1156,192.608
1157,195.674
1158,186.329
1159,181.119
1160,178.197
1161,188.906
1162,196.309
1163,188.703
1164,183.799
1165,181.457
1166,188.07
1167,196.171
1168,197.929
1169,196.25
1170,189.215
1171,189.814
1172,193.92
1173,188.245
1174,186.601
1175,195.998
1176,195.952
1177,188.901
1178,188.513
1179,188.899
1180,188.311
1181,186.336
1182,182.805
1183,174.27
1184,166.09
1185,180.819
1186,190.666
1187,192.435
1188,186.98
1189,178.133
1190,175.093
1191,173.686
1192,176.048
1193,179.821
1194,184.548
1195,180.724
1196,177
1197,177
1198,177
1199,177
1200,177.493
1201,178.423
1202,181.385
1203,181.652
1204,178.688
1205,182.098
1206,186.952
1207,186.358
1208,185.059
1209,182.684
1210,180.309
1211,177.932
1212,175.555
1213,177.702
1214,188.406
1215,187.258
1216,180.118
1217,174.731
1218,173.532
1219,181.871
1220,185.372
1221,185.968
1222,178.661
1223,174.609
1224,180.575
1225,185.126
1226,188.707
1227,185.709
1228,183.729
1229,186.717
1230,187.659
1231,187.061
1232,184.851
1233,184.49
1234,191.074
1235,193.335
1236,192.137
1237,186.693
1238,184.21
1239,194.401
1240,196.366
1241,191.568
1242,188.354
1243,186.259
1244,187.46
1245,193.619
1246,203.833
1247,200.74
1248,197
1249,197
1250,198.01
1251,199.816
1252,204.866
1253,207.428
1254,200.801
1255,202.176
1256,209.409
1257,214.43
1258,218.628
1259,221.042
1260,222.728
1261,223.936
1262,228.003
1263,232.584
1264,238.024
1265,237.305
1266,233.072
1267,228.836
1268,227.6
1269,232.443
1270,225.369
1271,212.933
1272,210.509
1273,208.313
1274,206.494
1275,207.326
1276,208.416
1277,201.132
1278,198.84
1279,203.091
1280,200.177
1281,195.743
1282,193.919
1283,192.397
1284,191.18
1285,191.519
1286,190.853
1287,185.372
1288,185.765
1289,190.64
1290,187.612
1291,185.523
1292,187.353
1293,192.34
1294,198.985
1295,197.153
1296,194.19
1297,189.302
1298,188.897
1299,190.778
1300,198.729
1301,201.301
1302,197.629
1303,189.388
1304,182.719
1305,186.395
1306,192.143
1307,199.499
1308,190.285
1309,183.924
1310,186.993
1311,187.588
1312,187.105
1313,189.562
1314,189.725
1315,186.652
1316,186.969
1317,188.597
1318,192.289
1319,195.321
1320,197.784
1321,189.011
1322,183.423
1323,188.353
1324,190.821
1325,192.218
1326,197.153
1327,196.342
1328,187.7
1329,190.961
1330,197.024
1331,202.585
1332,200.802
1333,193.383
1334,193.587
1335,195.849
1336,201.419
1337,205.661
1338,208.56
1339,204.223
1340,205.929
1341,213.988
1342,220.966
1343,224.047
1344,216.599
1345,215.617
1346,218.076
1347,219.939
1348,221.804
1349,223.668
1350,223.489
1351,222.066
1352,217.71
1353,211.084
1354,202.998
1355,201.752
1356,204.456
1357,213.182
1358,210.557
1359,205.061
1360,200.069
1361,202.752
1362,210.867
1363,211
1364,211.478
1365,212.728
1366,210.064
1367,207.574
1368,210.702
1369,214.564
1370,218.946
1371,212.815
1372,210.96
1373,215.973
1374,218.496
1375,219.874
1376,219.247
1377,215.576
1378,210.049
1379,213.817
1380,216
1381,216
1382,220.17
1383,223.4
1384,220.884
1385,219.592
1386,218.962
1387,218.333
1388,217.703
1389,217.073
1390,216.442
1391,216.564
1392,218.456
1393,219.45
1394,220.889
1395,227.834
1396,225.5
1397,215.392
1398,212.57
1399,211.959
1400,214.489
1401,211.466
1402,206.211
1403,197.98
1404,199.444
1405,206.112
1406,208.014
1407,205.643
1408,198.668
1409,197.426
1410,197.417
1411,198.686
1412,198.522
1413,197.434
1414,194.256
1415,191.078
1416,187.98
1417,187.344
1418,189.927
1419,196.292
1420,189.076
1421,183.812
1422,186.361
1423,186.522
1424,186.23
1425,187.506
1426,187.218
1427,185.766
1428,180.657
1429,180.452
1430,185.563
1431,190.092
1432,191.88
1433,188.682
1434,182.966
1435,179.864
1436,188.188
1437,191.424
1438,191.482
1439,186.354
1440,187.469
1441,193.881
1442,190.851
1443,191.172
1444,196.308
1445,185.884
1446,180.965
1447,193.818
1448,199.419
1449,199.843
1450,188.906
1451,185
1452,185.058
1453,185.702
1454,186.692
1455,187.98
1456,189.905
1457,186.243
1458,175.276
1459,175.141
1460,176.648
1461,178.585
1462,176.462
1463,174.462
1464,176.401
1465,175.659
1466,174.845
1467,180.669
1468,176.786
1469,167.072
1470,168.368
1471,169.664
1472,170.96
1473,181.685
1474,183.842
1475,174.109
1476,173
1477,175.247
1478,181.742
1479,180.38
1480,175.562
1481,166.458
1482,170.174
1483,176.874
1484,176.223
1485,177.283
1486,178.921
1487,178.269
1488,176.469
1489,174.417
1490,182.245
1491,182.943
1492,177.069
1493,173.773
1494,172
1495,172
1496,187.146
1497,190.767
1498,175.068
1499,171.295
1500,171.783
1501,177.021
1502,175.869
1503,171.744
1504,163.878
1505,165.994
1506,170.155
1507,170.811
1508,168.66
1509,165.502
1510,162.874
1511,162.877
1512,164.48
1513,167.768
1514,163.652
1515,156.139
1516,157.455
1517,156.455
1518,154.045
1519,154.704
1520,156.09
1521,158.09
1522,160.729
1523,161.316
1524,160.002
1525,160.663
1526,159.06
1527,155.095
1528,157.581
1529,161.146
1530,165.776
1531,166.63
1532,169.043
1533,173.678
1534,178.316
1535,184.072
1536,191.364
1537,185.946
1538,180.925
1539,178.271
1540,180.981
1541,181.438
1542,177.452
1543,182.893
1544,182.679
1545,171.374
1546,177.599
1547,182.5
1548,181.168
1549,171.691
1550,167.728
1551,175.059
1552,174.838
1553,174.248
1554,174.915
1555,169.172
1556,165.25
1557,165.918
1558,167.173
1559,166.726
1560,163.383
1561,157.669
1562,157.137
1563,165.168
1564,163.599
1565,159.839
1566,154.479
1567,158.273
1568,159.876
1569,157.193
1570,153.887
1571,152
1572,152
1573,155.186
1574,157.309
1575,157.981
1576,159.307
1577,153.798
1578,141.014
1579,156.467
1580,161.233
1581,155.903
1582,152.533
1583,150.632
1584,150.586
1585,160.032
1586,160.477
1587,154.402
1588,148.324
1589,147.252
1590,149.28
1591,151.308
1592,151.109
1593,149.267
1594,145.206
1595,148.76
1596,154.153
1597,154.831
1598,147.879
1599,142.12
1600,146.189
1601,150.804
1602,151.779
1603,144.989
1604,146.322
1605,149.819
1606,154.577
1607,150.043
1608,149.099
1609,153.862
1610,153.339
1611,151.974
1612,150.162
1613,154.933
1614,153.909
1615,149.341
1616,152.753
1617,159.196
1618,165.538
1619,162.806
1620,149.955
1621,139.643
1622,150.582
1623,157.263
1624,160.783
1625,160.099
1626,152.966
1627,149.897
1628,154.693
1629,152.433
1630,149.363
1631,145.987
1632,145.301
1633,143.071
1634,140.217
1635,142.278
1636,140.767
1637,138.268
1638,139.643
1639,133.374
1640,128.385
1641,133.204
1642,127.675
1643,122.736
1644,122.047
1645,130.353
1646,132.01
1647,125.934
1648,123.863
1649,124.209
1650,126.187
1651,127.569
1652,128
1653,126.329
1654,119.411
1655,121.305
1656,123.757
1657,123.064
1658,114.204
1659,111.249
1660,116.087
1661,120.248
1662,122.402
1663,121.564
1664,111.15
1665,114.299
1666,122.793
1667,129.743
1668,121.316
1669,111.878
1670,106.312
1671,120.455
1672,124.82
1673,118.651
1674,113.773
1675,110.668
1676,111.4
1677,123.259
1678,116.34
1679,108.704
1680,110.799
1681,118.581
1682,118.701
1683,110.03
1684,110.729
1685,114.86
1686,119.227
1687,115.026
1688,109.235
1689,107.071
1690,113.38
1691,120.324
1692,117.323
1693,104.249
1694,109.163
1695,114.079
1696,116.434
1697,108.703
1698,105.355
1699,104.503
1700,105.91
1701,106
1702,106.363
1703,106.393
1704,100.051
1705,102.77
1706,108.182
1707,108.888
1708,102.474
1709,98.5984
1710,99.984
1711,97.8644
1712,102.023
1713,108.247
1714,104.003
1715,103
1716,106.475
1717,116.387
1718,113.013
1719,106.522
1720,99.4919
1721,103.747
1722,102.497
1723,98.9491
1724,95.3996
1725,91.8485
1726,94.4298
1727,103.051
1728,103.762
1729,97.8416
1730,92.1113
1731,96.382
1732,99.4364
1733,101.643
1734,102.966
1735,102.253
1736,98.3199
1737,94.867
1738,98.4353
1739,100.803
1740,102.315
1741,102.525
1742,91.0888
1743,90.2164
1744,95.398
1745,101.122
1746,102.606
1747,100.422
1748,94.9614
1749,94.2447
1750,96.8332
1751,98.8638
1752,94.5592
1753,93.3754
1754,96.4257
1755,103
1756,103
1757,98.516
1758,94.2173
1759,94.9366
1760,96.9689
1761,96.8713
1762,95.1927
1763,96.6337
1764,95.3872
1765,95.8102
1766,100.859
1767,97.4927
1768,94.3068
1769,93.0176
1770,98.0743
1771,93.0955
1772,92.4472
1773,100.402
1774,108.361
1775,101.807
1776,91.1685
1777,88.2714
1778,90.6272
1779,92
1780,92.6407
1781,96.9933
1782,98
1783,96.5804
1784,92.9493
1785,89.3164
1786,89.3907
1787,91.5719
1788,93.7539
1789,88.189
1790,85.7472
1791,87.8143
1792,93.6423
1793,87.1728
1794,81.8644
1795,84.1219
1796,89.2295
1797,89.0921
1798,89.0714
1799,96.3757
1800,90.3165
1801,87.7987
1802,89.5226
1803,92.4489
1804,88.8411
1805,87.3051
1806,90.4693
1807,96.3312
1808,94.329
1809,89.4539
1810,85.0528
1811,92.9761
1812,95.5408
1813,92.289
1814,82.0035
1815,82.99
1816,89.1821
1817,96.5976
1818,94.3901
1819,89.1509
1820,86.6851
1821,88.5544
1822,93.7135
1823,91.679
1824,87.2537
1825,83.3173
1826,91.4372
1827,94
1828,94.4883
1829,95.9662
1830,90.9431
1831,88.076
1832,86.3945
1833,84.1742
1834,88.7769
1835,87.6148
1836,83.8206
1837,87.5271
1838,90.5882
1839,94.3335
1840,95.3788
1841,80.5297
1842,82.3141
1843,85.7187
1844,86.7947
1845,85.3075
1846,83.8196
1847,84.3376
1848,87.3154
1849,90.2947
1850,85.3123
1851,81.6283
1852,83.4183
1853,88.6402
1854,85.5838
1855,81.7014
1856,80.8186
1857,77.83
1858,81.3196
1859,87.0136
1860,91.3943
1861,78.6725
1862,77.1304
1863,82.0963
1864,89.8775
1865,86.8794
1866,78.0506
1867,74.6403
1868,84.3339
1869,92.5917
1870,84.359
1871,74.7167
1872,74.1741
1873,77.9336
1874,82.7723
1875,84.8346
1876,81.6036
1877,74.8258
1878,72.4495
1879,75.3455
1880,83
1881,83
1882,81.2994
1883,80
1884,80
1885,80
1886,84.1164
1887,84.2472
1888,79.6024
1889,84.1424
1890,82.5439
1891,78.7723
1892,76.6744
1893,86.5264
1894,88.6448
1895,84.5638
1896,77.5139
1897,75.2368
1898,81.8047
1899,85
1900,82.3988
1901,72.5157
1902,78.4886
1903,80.0363
1904,78.2709
1905,76.0045
1906,76.7663
1907,78.5853
1908,79.4184
1909,78.2674
1910,82.0827
1911,81.8402
1912,78.252
1913,74.7185
1914,86.9464
1915,87.0913
1916,77.9782
1917,68.4934
1918,79.9752
1919,89.37
1920,86.9732
1921,77.9302
1922,71.0303
1923,80.928
1924,80.8138
1925,76.5067
1926,73.9984
1927,85.5225
1928,88.6034
1929,83.7879
1930,76.5559
##>>>>>End Processed Spectral Data<<<<<
